Data Set 2:Time(s),Data Set 2:Position(m),Data Set 2:Velocity(m/s),Data Set 2:Acceleration(m/s²)
0.0,0.3546039999999999,-0.8279344444444444,-1.403214135802467
0.05,0.3162669999999999,-0.9040930555555554,-0.9757770679012328
0.1,0.2678709999999999,-0.976804333333333,0.144162870370371
0.1499999999999999,0.214695,-0.9587899999999996,2.3912909567901215
0.2,0.1631809999999999,-0.7566994444444444,4.943477129629628
0.25,0.129745,-0.3795505555555554,5.8898437654321
0.2999999999999999,0.130558,-0.0781822222222221,5.1849537037037035
0.3499999999999999,0.130697,0.0851444444444444,5.180430246913578
0.4,0.130281,0.3864561111111109,5.861973765432096
0.45,0.1640989999999999,0.7624049999999997,4.813672530864198
0.5,0.2158719999999999,0.9604633333333332,1.900259876543212
0.55,0.2688059999999999,0.9607205555555556,-1.4101614197530852
0.5999999999999999,0.318241,0.793635,-4.232492283950619
0.65,0.3532879999999999,0.4992355555555554,-6.126860493827162
0.6999999999999998,0.3706899999999999,0.1391288888888889,-6.978363580246913
0.75,0.36785,-0.2387127777777775,-6.801801543209874
0.8,0.3453229999999999,-0.5790305555555556,-5.64027777777778
0.8499999999999999,0.3069339999999999,-0.8408022222222223,-3.5181009259259284
0.9,0.255923,-0.9660594444444446,-0.5818506172839499
0.95,0.2035779999999999,-0.9188944444444443,2.6583234567901277
1.0,0.1546619999999999,-0.6696477777777772,5.10573271604938
1.05,0.13113,-0.3113622222222221,5.647283024691352
1.1,0.130074,-0.0500733333333334,5.084959259259261
1.15,0.1311469999999999,0.1337683333333332,5.37718827160494
1.2,0.1340559999999999,0.4648916666666664,5.83721080246913
1.25,0.1751109999999999,0.8242388888888881,4.272198765432097
1.3,0.2276639999999999,0.9678027777777773,1.1221438271605022
1.35,0.2794889999999999,0.9277538888888897,-2.0784385802469094
1.4,0.326206,0.7317277777777784,-4.682658024691366
1.45,0.3573399999999999,0.4214838888888887,-6.337358024691361
1.5,0.370448,0.056642222222222,-6.9608873456790095
1.55,0.3632099999999999,-0.3146338888888889,-6.56324012345679
1.6,0.3369939999999999,-0.6365083333333337,-5.209160493827166
1.65,0.2962509999999999,-0.8720750000000004,-2.93309845679012
1.7,0.2442179999999999,-0.9630727777777772,0.0837506172839576
1.75,0.1929459999999999,-0.8788899999999993,3.2648358024691344
1.8,0.1464889999999999,-0.5910866666666662,5.390455246913574
1.85,0.130939,-0.2388127777777777,5.5568990740740745
1.9,0.1304889999999999,-0.0074655555555555,5.060479629629632
1.95,0.131545,0.2032277777777777,5.427919135802468
2.0,0.1425579999999999,0.5404022222222223,5.504325308641975
2.05,0.1858469999999999,0.8571416666666662,3.601369135802461
2.1,0.238954,0.9604944444444437,0.4053336419753061
2.15,0.2895499999999999,0.8798677777777769,-2.621701851851845
2.2,0.3317649999999999,0.6642488888888887,-4.924622839506164
2.25,0.359487,0.3567533333333338,-6.400985493827169
2.3,0.3701009999999999,-0.0112861111111112,-6.948197839506172
2.35,0.3586209999999999,-0.3838077777777774,-6.384995370370363
2.4,0.3288729999999999,-0.6904377777777772,-4.799882098765432
2.45,0.2857049999999999,-0.897778333333333,-2.339716666666677
2.5,0.2333089999999999,-0.9527827777777794,0.7338901234567903
2.55,0.1833189999999999,-0.832809444444444,3.793432716049392
2.6,0.1400819999999999,-0.5146661111111107,5.570491666666665
2.65,0.1314589999999999,-0.1748405555555554,5.4205978395061685
2.7,0.1315969999999999,0.0258777777777778,5.0890972222222235
2.75,0.1311819999999999,0.2714050000000004,5.587471913580255
2.8,0.151372,0.626755,5.182196296296288
2.85,0.198522,0.8870922222222216,2.8792675925925857
2.9,0.249447,0.9490899999999992,-0.28010308641975
2.95,0.300008,0.8422911111111108,-3.2098222222222126
3.0,0.33921,0.594886111111112,-5.373200617283959
3.05,0.3626559999999999,0.2660361111111108,-6.5694339506172845
3.1,0.3672269999999999,-0.0999216666666666,-6.790656481481477
3.15,0.3521449999999999,-0.4513388888888885,-6.027943209876542
3.2,0.3197479999999999,-0.741731111111111,-4.296295987654329
3.25,0.2731339999999999,-0.9146638888888904,-1.724149382716052
3.3,0.2226769999999999,-0.9370266666666665,1.3292364197530964
3.35,0.172289,-0.7860566666666661,4.258219753086419
3.4,0.1340389999999999,-0.441577222222222,5.729548765432093
3.45,0.1302289999999999,-0.11664,5.369265123456787
3.5,0.131303,0.0699477777777777,5.20284104938272
3.55,0.1309569999999999,0.3528505555555554,5.651032716049378
3.6,0.1613449999999999,0.7072038888888884,4.699521913580241
3.65,0.2097249999999999,0.9072988888888882,2.070352469135804
3.7,0.2603039999999999,0.9231599999999996,-0.9540388888888784
3.75,0.3072809999999999,0.792827777777779,-3.640559876543213
3.8,0.3448379999999999,0.5330455555555554,-5.648000617283955
3.85,0.3641619999999999,0.1882955555555554,-6.681862037037033
3.9,0.3643179999999999,-0.1777638888888887,-6.663767283950617
3.95,0.3452359999999999,-0.5155405555555556,-5.672359567901244
4.0,0.3100509999999999,-0.7818016666666683,-3.755743827160501
4.05,0.2620009999999999,-0.9228866666666679,-1.0742833333333082
4.1,0.2117509999999999,-0.9073149999999972,1.9450895061728533
4.15,0.1637349999999999,-0.7172749999999976,4.555899999999969
4.2,0.132325,-0.3766505555555559,5.639484259259252
4.25,0.129641,-0.0803377777777779,5.300426851851859
4.3,0.1308699999999999,0.1151916666666666,5.364830555555554
4.35,0.133519,0.4282299999999987,5.652927160493801
4.4,0.1708859999999999,0.7703583333333309,4.224257407407412
4.45,0.220495,0.921283333333335,1.3465385802469434
4.5,0.2704329999999999,0.8972550000000024,-1.5972787037037082
4.55,0.314813,0.739655555555557,-4.089568518518548
4.6,0.3493749999999999,0.4626144444444428,-5.881670679012345
4.65,0.3642489999999999,0.1110099999999994,-6.690229320987636
4.7,0.3605259999999999,-0.2482800000000006,-6.464283024691372
4.75,0.3379979999999999,-0.5713088888888903,-5.2990870370370455
4.8,0.3003369999999999,-0.8142144444444454,-3.2343604938271384
4.85,0.251282,-0.9246972222222192,-0.4692876543209667
4.9,0.2016209999999999,-0.8752105555555528,2.5160077160493564
4.95,0.1558219999999999,-0.6495522222222233,4.870690432098753
5.0,0.1310429999999999,-0.3093027777777784,5.646790432098777
5.05,0.129641,-0.0335349999999999,5.344945061728402
5.1,0.131268,0.1863716666666662,5.441941049382699
5.15,0.1412249999999999,0.5106238888888873,5.306447530864195
5.2,0.1830239999999999,0.8040922222222237,3.4968496913580527
5.25,0.2310919999999999,0.9083266666666692,0.6359234567901223
5.3,0.280009,0.857232777777779,-2.1731500000000312
5.35,0.3219809999999999,0.6688861111111088,-4.478790123456792
5.4,0.3511229999999999,0.3779822222222211,-5.987220370370346
5.45,0.3619459999999999,0.0322488888888891,-6.551989506172848
5.5,0.354431,-0.3162416666666674,-6.135360802469151
5.55,0.328509,-0.6185116666666677,-4.786079012345666
5.6,0.2887009999999999,-0.8261399999999975,-2.6430033950617022
5.65,0.2409449999999999,-0.9055516666666636,0.0480669753086217
5.7,0.1923749999999999,-0.8344733333333348,2.899408950617262
5.75,0.1491379999999999,-0.5871022222222237,5.042809567901248
5.8,0.1294849999999999,-0.2489494444444447,5.600520061728414
5.85,0.1303679999999999,0.0028077777777778,5.423176543209867
5.9,0.129658,0.2561238888888883,5.595437037037031
5.95,0.1499169999999999,0.5944027777777787,4.997325925925952
6.0,0.1935349999999999,0.8370694444444468,2.8188975308642044
6.05,0.2420699999999999,0.9022727777777791,-0.0200237654321262
6.1,0.2894109999999999,0.8193322222222199,-2.6550515432098885
6.15,0.328457,0.6163683333333315,-4.780182716049359
6.2,0.3552449999999999,0.3138194444444449,-6.172360185185184
6.25,0.3621019999999999,-0.0418,-6.5725932098765565
6.3,0.3503959999999999,-0.3854261111111116,-5.940942592592589
6.35,0.321185,-0.6701855555555534,-4.418413580246889
6.4,0.2796279999999999,-0.8584638888888863,-2.1129012345679152
6.45,0.229794,-0.9050083333333347,0.7102429012345407
6.5,0.1827469999999999,-0.7923600000000022,3.4996746913580328
6.55,0.1423329999999999,-0.5108155555555564,5.30187006172842
6.6,0.1298659999999999,-0.1800338888888885,5.507668209876537
6.65,0.1313719999999999,0.0462038888888889,5.367462037037029
6.7,0.131355,0.3203305555555561,5.5712543209876735
6.75,0.158558,0.6575477777777795,4.650177777777789
6.8,0.2038379999999999,0.8607016666666681,2.235604938271582
6.85,0.252338,0.8931405555555529,-0.5977441358024878
6.9,0.298207,0.7861361111111087,-3.185412654320963
6.95,0.336059,0.552541111111112,-5.196368827160485
7.0,0.357184,0.2305011111111116,-6.32357592592594
7.05,0.360076,-0.1201983333333337,-6.455280864197536
7.1,0.3444049999999999,-0.4520305555555543,-5.632809876543184
7.15,0.3124929999999999,-0.7201411111111086,-3.9052910493827206
7.2,0.2675589999999999,-0.872537777777779,-1.4465851851852145
7.25,0.219526,-0.8779150000000023,1.3100913580246931
7.3,0.1741939999999999,-0.741307777777779,3.898939814814841
7.349999999999999,0.1368439999999999,-0.4362549999999986,5.380866975308638
7.4,0.13139,-0.1265944444444442,5.381870370370353
7.45,0.1307839999999999,0.0851805555555555,5.4136614197530974
7.5,0.1337619999999999,0.3913161111111121,5.566189506172855
7.55,0.167492,0.7186600000000013,4.212225617283936
7.599999999999999,0.214227,0.8773427777777751,1.5344830246913344
7.65,0.26233,0.8697594444444418,-1.274706790123436
7.7,0.306155,0.7274350000000008,-3.640853703703688
7.75,0.3392799999999999,0.4789983333333343,-5.33198734567902
7.8,0.3566129999999999,0.1649988888888891,-6.2581487654321055
7.849999999999999,0.3571669999999999,-0.1809949999999991,-6.304574074074048
7.9,0.337791,-0.5060461111111089,-5.356054012345664
7.95,0.303437,-0.7545250000000002,-3.486573148148158
8.0,0.2572909999999999,-0.8808233333333318,-0.9536574074074212
8.05,0.2099329999999999,-0.862662222222224,1.8358712962962795
8.099999999999998,0.1646699999999999,-0.6928361111111133,4.361111728395078
8.15,0.132584,-0.3639733333333342,5.596289506172869
8.199999999999998,0.1311469999999999,-0.0650177777777776,5.463552777777789
8.25,0.1309049999999999,0.159859444444444,5.433136111111086
8.3,0.14093,0.4745677777777781,5.2152805555555775
8.349999999999998,0.179232,0.7550261111111131,3.5631830246913783
8.4,0.2244259999999999,0.8735405555555581,0.9676922839506052
8.449999999999998,0.2720259999999999,0.8513566666666673,-1.7488956790123844
8.5,0.315367,0.6834649999999955,-4.108287962962941
8.55,0.3448209999999999,0.4080388888888892,-5.687760493827144
8.599999999999998,0.358136,0.0781972222222224,-6.359538271604952
8.65,0.353184,-0.264002222222223,-6.09672901234569
8.699999999999998,0.3305009999999999,-0.5709416666666672,-4.870282407407381
8.75,0.2921119999999999,-0.7842222222222168,-2.8309984567901085
8.8,0.247005,-0.8716138888888894,-0.3190098765432508
8.849999999999998,0.2001669999999999,-0.8270561111111135,2.3590098765432024
8.9,0.157051,-0.6223883333333349,4.614102160493849
8.949999999999998,0.132134,-0.298375,5.524330555555573
9.0,0.1313199999999999,-0.0252955555555555,5.455354012345655
9.05,0.131165,0.2240766666666665,5.491300617283965
9.1,0.1485149999999999,0.5449477777777791,4.9274450617284185
9.15,0.1889639999999999,0.78850777777778,2.9568595679012306
9.2,0.2351439999999999,0.869114444444445,0.3041336419752692
9.25,0.2813769999999999,0.8079161111111057,-2.2402891975308536
9.3,0.3203369999999999,0.6280333333333336,-4.364495061728369
9.35,0.3483879999999999,0.3475855555555564,-5.843029938271612
9.4,0.3577549999999999,0.0049238888888889,-6.376579938271617
9.45,0.3484919999999999,-0.3320366666666667,-5.882058333333319
9.5,0.322691,-0.6204961111111067,-4.46153734567899
9.55,0.2822419999999999,-0.8077394444444451,-2.307390432098804
9.6,0.2366849999999999,-0.864916666666669,0.2118506172839365
9.65,0.1909549999999999,-0.7923350000000021,2.7782675925926106
9.7,0.1504889999999999,-0.5676988888888893,4.82322932098768
9.75,0.129831,-0.2477372222222209,5.610951543209848
9.8,0.1294849999999999,0.0254188888888888,5.611688580246919
9.85,0.1321,0.3016866666666674,5.515059259259278
9.9,0.156359,0.6146711111111128,4.537314814814818
9.95,0.1986779999999999,0.816779444444445,2.3243944444444087
10.0,0.245118,0.862587777777772,-0.318668827160492
10.05,0.290138,0.7720877777777782,-2.7625333333333
10.1,0.326743,0.566875555555557,-4.714157716049384
10.15,0.350466,0.2736944444444451,-5.960547839506191
10.2,0.356128,-0.067223888888889,-6.271526543209876
10.25,0.3430719999999999,-0.3937294444444419,-5.588962962962934
10.3,0.3145009999999999,-0.662051666666667,-4.017690432098797
10.35,0.272407,-0.8230633333333354,-1.763660802469154
10.4,0.22685,-0.8495344444444468,0.7762641975308785
10.45,0.182592,-0.7472116666666672,3.2485040123457125
10.5,0.1449129999999999,-0.4940216666666634,5.004204012345652
10.55,0.1310089999999999,-0.1832088888888888,5.4943836419753005
10.6,0.1311469999999999,0.0660772222222224,5.548322839506184
10.65,0.134524,0.3616438888888898,5.475160185185192
10.7,0.1651719999999999,0.672899444444445,4.168781172839479
10.75,0.209119,0.8353311111111055,1.6963148148148055
10.8,0.255317,0.8442466666666671,-0.956013271604902
10.85,0.2983629999999999,0.7229038888888905,-3.279642283950612
10.9,0.3319209999999999,0.4935388888888903,-5.014991666666684
10.95,0.350725,0.1907466666666668,-5.972637654320999
11.0,0.3521449999999999,-0.1403333333333325,-6.023695061728364
11.05,0.3357469999999999,-0.448498888888889,-5.161662654321009
11.1,0.304493,-0.6874427777777794,-3.522913888888908
11.15,0.262849,-0.8235922222222243,-1.3044021604938163
11.2,0.2171189999999999,-0.8304522222222225,1.1984864197531253
11.25,0.174488,-0.7043016666666616,3.605435185185165
11.3,0.139822,-0.4337638888888891,5.213569135802449
11.35,0.130195,-0.1258750000000003,5.639182098765438
11.4,0.130385,0.1389938888888891,5.626989814814824
11.45,0.1409129999999999,0.446653888888889,5.162131790123438
11.5,0.176202,0.7123888888888839,3.5187743827160305
11.55,0.2190749999999999,0.833061666666667,1.1062830246913968
11.6,0.2648059999999999,0.8207083333333354,-1.3740935185185064
11.65,0.3057739999999999,0.6851055555555575,-3.6001345679012533
11.7,0.3378769999999999,0.4400733333333335,-5.275377160493848
11.75,0.3528719999999999,0.1218372222222215,-6.090171296296263
11.8,0.350362,-0.208465,-5.942079012345691
11.85,0.3306569999999999,-0.5056822222222235,-4.933225000000021
11.9,0.297099,-0.7323916666666686,-3.155496604938268
11.95,0.2528059999999999,-0.8455666666666674,-0.7882462962962583
12.0,0.2072139999999999,-0.8221799999999944,1.7999015432098686
12.05,0.1646699999999999,-0.657951666666667,4.125643518518491
12.1,0.135268,-0.3624050000000009,5.449759876543216
12.15,0.1294499999999999,-0.0643544444444446,5.705580555555568
12.2,0.1303679999999999,0.212155,5.595149074074065
12.25,0.1479949999999999,0.5186211111111076,4.8257308641975065
12.3,0.185501,0.7471066666666673,2.969188888888923
12.35,0.2289449999999999,0.838001666666669,0.556522530864211
12.4,0.274104,0.8022772222222243,-1.9084891975308835
12.45,0.3144839999999999,0.6353938888888891,-4.063944444444475
12.5,0.3418769999999999,0.3670422222222196,-5.522012037037008
12.55,0.3531149999999999,0.0470038888888888,-6.094828395061724
12.6,0.3467429999999999,-0.2778850000000004,-5.7592993827160655
12.65,0.324025,-0.5656233333333347,-4.5238219135802495
12.7,0.2862939999999999,-0.7610172222222227,-2.5471830246913263
12.75,0.2428499999999999,-0.833521666666661,-0.1989796296296277
12.8,0.1985909999999999,-0.7860705555555559,2.2307512345678675
12.85,0.1583149999999999,-0.6022838888888905,4.370905246913581
12.9,0.132861,-0.3005866666666673,5.501967901234587
12.95,0.1302119999999999,-0.0127027777777777,5.716661111111113
13.0,0.131667,0.2748005555555539,5.556981790123427
13.05,0.1554929999999999,0.5811772222222225,4.490045987654345
13.1,0.194938,0.7750511111111132,2.3622620370370533
13.15,0.2391959999999999,0.828450000000002,-0.0963663580247063
13.2,0.2825889999999999,0.7557827777777781,-2.399964814814848
13.25,0.3192109999999999,0.5709672222222185,-4.269499691358001
13.3,0.342864,0.3053861111111114,-5.52599660493826
13.35,0.351989,-0.0124194444444444,-5.99907006172841
13.4,0.3418249999999999,-0.3338700000000009,-5.520894135802476
13.45,0.3161809999999999,-0.5989055555555559,-4.1832395061728125
13.5,0.278675,-0.7796199999999947,-2.156631172839495
13.55,0.2330839999999999,-0.8332488888888894,0.3062882716049004
13.6,0.1898989999999999,-0.7502066666666688,2.7487382716049336
13.65,0.1523239999999999,-0.5362555555555569,4.654251543209898
13.7,0.1325319999999999,-0.235221111111111,5.516175617283966
13.75,0.131078,0.0426866666666665,5.652006172839478
13.8,0.135736,0.3353561111111112,5.39765709876545
13.85,0.163389,0.6286988888888905,4.121667283950636
13.9,0.204704,0.7933461111111131,1.8803904320987552
13.95,0.2486499999999999,0.8197155555555558,-0.5530632716049765
14.0,0.2907619999999999,0.7307833333333282,-2.847442592592577
14.05,0.3266739999999999,0.521957777777778,-4.749136728395038
14.1,0.3468469999999999,0.2231305555555562,-5.851190432098773
14.15,0.3501539999999999,-0.1062311111111111,-5.938453395061738
14.2,0.334951,-0.408385,-5.098967901234553
14.25,0.306398,-0.6412222222222179,-3.5839203703703544
14.3,0.267438,-0.7852527777777784,-1.5699530864197906
14.35,0.2236119999999999,-0.8161144444444468,0.8192749999999889
14.4,0.1798899999999999,-0.706466111111113,3.195697222222241
14.45,0.146956,-0.4638733333333336,4.8679092592592825
14.5,0.1322029999999999,-0.1748166666666657,5.561336728395034
14.55,0.1303679999999999,0.1095544444444445,5.670775617283959
14.6,0.141381,0.4151322222222234,5.10974598765434
14.65,0.173761,0.6686466666666683,3.509588888888885
14.7,0.2140709999999999,0.7938300000000003,1.263835493827125
14.75,0.2580529999999999,0.795899444444439,-1.0801037037036971
14.8,0.2985019999999999,0.6751283333333337,-3.1858959876542894
14.85,0.3292709999999999,0.4591950000000013,-4.818085493827161
14.9,0.3475909999999999,0.167615555555556,-5.7820527777777935
14.95,0.34747,-0.1569827777777779,-5.826207098765427
15.0,0.3305699999999999,-0.4524622222222192,-4.945372222222196
15.05,0.2997659999999999,-0.683423888888889,-3.2740293209876863
15.1,0.257637,-0.8034877777777799,-1.0331614197531032
15.15,0.2140369999999999,-0.7911950000000022,1.3392049382716198
15.2,0.174124,-0.663770555555556,3.523907098765463
15.25,0.142091,-0.4128083333333307,5.086903703703677
15.3,0.1310609999999999,-0.1111949999999999,5.6778598765432085
15.35,0.132221,0.1772505555555561,5.604681481481497
15.4,0.147597,0.4744222222222234,4.823340432098768
15.45,0.1822969999999999,0.7038444444444449,3.074037037037008
15.5,0.2237329999999999,0.8041427777777725,0.7839950617283917
15.55,0.267351,0.7838461111111118,-1.5897265432098435
15.6,0.307367,0.6348000000000014,-3.696506790123456
15.65,0.3348819999999999,0.3872933333333343,-5.15951820987656
15.7,0.348059,0.0866527777777779,-5.822827469135809
15.75,0.3441799999999999,-0.2284227777777763,-5.627326234567874
15.8,0.3241459999999999,-0.5128583333333337,-4.540768518518544
15.85,0.2893069999999999,-0.7128233333333353,-2.7220067901234724
15.9,0.2481479999999999,-0.7984372222222244,-0.5244067901234367
15.95,0.2053269999999999,-0.7712149999999997,1.7935385802469586
16.0,0.165518,-0.6143727777777722,3.9191959876542986
16.05,0.1386969999999999,-0.3422866666666648,5.243994444444386
16.1,0.1314589999999999,-0.0526788888888895,5.69065740740746
16.15,0.1331729999999999,0.2440994444444472,5.537351543209906
16.2,0.155025,0.5395644444444407,4.462141975308554
16.25,0.1916999999999999,0.7326816666666586,2.4662077160493623
16.3,0.233794,0.7977649999999947,0.1366533950618269
16.35,0.2761649999999999,0.740997222222231,-2.1096996913579784
16.4,0.3123889999999999,0.5719966666666734,-3.9766058641976207
16.45,0.3368729999999999,0.3179388888888867,-5.2163438271605065
16.5,0.3459459999999999,0.0182483333333332,-5.670285802469086
16.55,0.3384659999999999,-0.2791338888888869,-5.340275925925936
