Data Set 2:Time(s),Data Set 2:Position(m),Data Set 2:Velocity(m/s),Data Set 2:Acceleration(m/s²)
0.0,0.2486509999999999,-1.0887177777777777,4.255231913580243
0.05,0.191274,-0.935514722222222,5.4702129938271575
0.1,0.133497,-0.5762703333333333,6.278189722222222
0.1499999999999999,0.13066,-0.175178888888889,4.875993796296295
0.2,0.1315999999999999,-0.0352505555555556,2.47390225308642
0.25,0.1314779999999999,-0.00762,1.5710711728395077
0.2999999999999999,0.1297899999999999,0.035208888888889,2.54279475308642
0.3499999999999999,0.131582,0.1750416666666667,4.8373472222222205
0.4,0.133305,0.5668611111111109,5.991019753086419
0.45,0.1879849999999999,0.9515616666666666,3.667454320987654
0.5,0.2455189999999999,1.0095594444444442,-0.3755601851851848
0.55,0.297014,0.8644838888888889,-3.7269774691358015
0.5999999999999999,0.3363789999999999,0.5840149999999998,-5.911712654320989
0.65,0.3583059999999999,0.2312716666666665,-6.9774370370370375
0.6999999999999998,0.3606729999999999,-0.1509283333333332,-7.067242283950615
0.75,0.3421219999999999,-0.5091477777777774,-6.236199074074073
0.8,0.307838,-0.8144422222222224,-4.321460802469139
0.8499999999999999,0.2566219999999999,-0.9974055555555555,-1.1385540123456792
0.9,0.2004799999999999,-0.9834866666666668,2.921022839506175
0.95,0.1423889999999999,-0.6553627777777777,5.73872839506173
1.0,0.1307639999999999,-0.2402805555555553,5.205088580246911
1.05,0.131165,-0.0521766666666665,2.90397685185185
1.1,0.132,-0.0092727777777778,1.6362413580246908
1.15,0.1305729999999999,0.0204372222222221,2.293616358024692
1.2,0.130886,0.1372016666666666,4.524595679012342
1.25,0.13066,0.5038999999999996,5.973884259259255
1.3,0.179092,0.9017288888888884,4.134920370370375
1.35,0.236069,1.0079255555555564,0.2975956790123491
1.4,0.2886779999999999,0.9005088888888892,-3.2166287037037136
1.45,0.3316279999999999,0.6371422222222217,-5.680029938271608
1.5,0.3559739999999999,0.2841272222222219,-6.929909259259252
1.55,0.3608989999999999,-0.0961766666666665,-7.130483333333332
1.6,0.3457939999999999,-0.4625833333333337,-6.399835802469144
1.65,0.3127109999999999,-0.7767644444444449,-4.58931759259259
1.7,0.2639309999999999,-0.9722461111111104,-1.5923941358024605
1.75,0.2087989999999999,-0.9881522222222212,2.291437962962961
1.8,0.150865,-0.7137527777777773,5.336521296296287
1.85,0.130851,-0.3064877777777779,5.403214197530864
1.9,0.1302939999999999,-0.075265,3.406969444444447
1.95,0.1303989999999999,0.0030505555555555,1.887628086419754
2.0,0.1325919999999999,0.0335411111111111,2.051031790123457
2.05,0.1322089999999999,0.1166661111111111,3.979038888888884
2.1,0.1315999999999999,0.4352611111111108,5.6631324074074
2.15,0.171017,0.8312511111111103,4.430356481481479
2.2,0.2273669999999999,0.9869233333333328,0.902422839506184
2.25,0.2802719999999999,0.9052772222222236,-2.6136614197530874
2.3,0.3227519999999999,0.6773894444444446,-5.175613271604944
2.35,0.35192,0.3484072222222221,-6.703288888888888
2.4,0.3599249999999999,-0.0349927777777777,-7.14776172839506
2.45,0.347812,-0.4072744444444445,-6.535378395061733
2.5,0.3173229999999999,-0.729901666666668,-4.833495987654327
2.55,0.270544,-0.9376855555555554,-1.9942376543209763
2.6,0.2172039999999999,-0.9738333333333328,1.6625472222222262
2.65,0.1616719999999999,-0.7616638888888883,4.849972222222217
2.7,0.131582,-0.3660672222222221,5.489839197530859
2.75,0.1319829999999999,-0.0903877777777776,3.6616617283950648
2.8,0.132609,-0.0117399999999999,1.9269240740740723
2.85,0.132609,0.0162599999999999,1.920162962962962
2.9,0.1324519999999999,0.094441111111111,3.638944135802468
2.95,0.132296,0.3654444444444444,5.488299382716054
3.0,0.161324,0.7670994444444456,4.8331574074074135
3.05,0.2186489999999999,0.9805333333333328,1.4943324074073965
3.1,0.2724409999999999,0.920453888888888,-2.2009817901234574
3.15,0.3162439999999999,0.7021049999999994,-4.836979629629622
3.2,0.3455149999999999,0.3940677777777777,-6.395382716049375
3.25,0.3581849999999999,0.0286272222222225,-7.002873148148157
3.3,0.348839,-0.3462705555555554,-6.593620679012344
3.35,0.3213079999999999,-0.6696822222222218,-5.15369444444444
3.4,0.278862,-0.9063111111111106,-2.588145061728397
3.45,0.2248089999999999,-0.9804905555555554,0.9885746913580143
3.5,0.1700079999999999,-0.8148638888888903,4.436903086419761
3.55,0.1318089999999999,-0.4269788888888888,5.57927870370371
3.6,0.132139,-0.1179711111111109,3.95593549382716
3.65,0.131722,-0.0298816666666666,2.132722530864196
3.7,0.130382,0.0125288888888887,1.9293111111111103
3.75,0.1321219999999999,0.0841399999999999,3.3642404320987693
3.8,0.1310949999999999,0.31618,5.282759259259254
3.85,0.153893,0.7171327777777771,5.043927469135796
3.9,0.2106609999999999,0.9637583333333324,1.9376793209876588
3.95,0.2640699999999999,0.9284616666666666,-1.7860027777777627
4.0,0.3092829999999999,0.730428333333335,-4.55454104938272
4.05,0.3407299999999999,0.4272577777777786,-6.20789969135804
4.1,0.354217,0.0709699999999998,-6.8298006172839365
4.15,0.3480559999999999,-0.2918411111111101,-6.513005555555547
4.2,0.323361,-0.6144277777777785,-5.282128703703732
4.25,0.283648,-0.8587211111111136,-3.028254320987665
4.3,0.2329189999999999,-0.9664650000000016,0.2600796296296588
4.35,0.1783259999999999,-0.866348888888886,3.9245163580246976
4.4,0.131687,-0.4880294444444431,5.699877469135772
4.45,0.1313389999999999,-0.1342427777777777,4.309359259259256
4.5,0.1319479999999999,-0.0296533333333332,2.2243182098765444
4.55,0.130991,0.0016683333333334,1.762219135802469
4.6,0.130938,0.060945,3.0842472222222135
4.65,0.130329,0.267300555555555,5.125903703703697
4.7,0.14681,0.663950000000001,5.275514814814843
4.75,0.2024119999999999,0.9459022222222248,2.4239950617284016
4.8,0.2559779999999999,0.9372266666666684,-1.2976916666666976
4.85,0.302234,0.7613349999999977,-4.120890432098772
4.9,0.3353349999999999,0.4825427777777763,-5.9165123456789885
4.95,0.353364,0.1367822222222225,-6.785070370370377
5.0,0.350144,-0.2341377777777785,-6.685292901234583
5.05,0.3283209999999999,-0.5687516666666677,-5.6228114197530745
5.1,0.290644,-0.8355149999999973,-3.506855555555527
5.15,0.2402459999999999,-0.968213888888886,-0.3050904320987859
5.2,0.1864359999999999,-0.9111344444444462,3.516080555555537
5.25,0.1332359999999999,-0.549407777777779,5.776465123456809
5.3,0.1304859999999999,-0.1607572222222222,4.675798765432115
5.35,0.1318429999999999,-0.0333349999999999,2.4608648148148142
5.4,0.130469,0.0040905555555556,1.7147373456790118
5.45,0.1313209999999999,0.0578938888888889,2.693402469135807
5.5,0.132331,0.2128872222222225,4.760222222222232
5.55,0.139762,0.595126111111112,5.4617030864197424
5.6,0.1941799999999999,0.9228138888888856,2.9589577160493548
5.65,0.2479379999999999,0.9438049999999968,-0.8195913580246639
5.7,0.2952039999999999,0.7880827777777791,-3.8021608024691136
5.75,0.330183,0.5203211111111126,-5.763162345679024
5.8,0.3507009999999999,0.174617777777778,-6.706397222222237
5.85,0.3485429999999999,-0.1928199999999994,-6.606861419753067
5.9,0.3294699999999999,-0.5198183333333319,-5.614329320987654
5.95,0.2942119999999999,-0.7857366666666679,-3.721212654321017
6.0,0.2471199999999999,-0.936169444444447,-0.8103833333333371
6.05,0.1942319999999999,-0.9168600000000016,2.868426234567931
6.1,0.140458,-0.604284999999998,5.414669753086416
6.15,0.1302939999999999,-0.2179999999999996,4.863303703703683
6.2,0.130834,-0.046821111111111,2.780774691358024
6.25,0.130799,0.0028838888888889,1.7129990740740733
6.3,0.131635,0.0413705555555555,2.4023898148148146
6.35,0.131878,0.1636127777777776,4.537437962962945
6.4,0.133688,0.5405499999999984,5.621732716049375
6.45,0.1864879999999999,0.8976283333333348,3.3754580246913863
6.5,0.2397929999999999,0.9437188888888914,-0.3863768518518549
6.55,0.287825,0.808817777777779,-3.4315000000000304
6.6,0.3245799999999999,0.5530599999999982,-5.414694444444444
6.65,0.3458629999999999,0.2298994444444437,-6.4008274691357805
6.7,0.3483519999999999,-0.1170333333333335,-6.567775000000012
6.75,0.3339769999999999,-0.4563000000000012,-5.915523765432112
6.8,0.3012079999999999,-0.7515772222222233,-4.170880864197513
6.85,0.254255,-0.9234705555555526,-1.2794253086419507
6.9,0.2023599999999999,-0.923877777777775,2.351905864197505
6.95,0.1484979999999999,-0.6526177777777789,5.046431172839496
7.0,0.1321739999999999,-0.280340555555556,4.950124691358037
7.05,0.129912,-0.0742544444444444,3.0992092592592666
7.1,0.1311989999999999,-0.0074844444444444,1.8754120370370368
7.15,0.1303989999999999,0.0323038888888889,2.3298555555555547
7.2,0.131774,0.1442288888888888,4.287231172839521
7.25,0.1318429999999999,0.4903905555555567,5.5170077160494015
7.3,0.1793529999999999,0.854044444444446,3.6680413580246745
7.349999999999999,0.2320659999999999,0.9353949999999972,0.087199074074053
7.4,0.28069,0.8255161111111085,-3.033983950617259
7.45,0.3189239999999999,0.5858766666666674,-5.163286728395051
7.5,0.3422089999999999,0.2714838888888894,-6.292355555555568
7.55,0.3474819999999999,-0.077433888888889,-6.524377469135807
7.599999999999999,0.3340119999999999,-0.4150949999999986,-5.870855864197505
7.65,0.3037489999999999,-0.6992166666666644,-4.286239197530869
7.7,0.2606069999999999,-0.8838733333333347,-1.708485185185216
7.75,0.2101559999999999,-0.9195472222222248,1.7410419753086457
7.8,0.1562419999999999,-0.6984016666666678,4.69747222222225
7.849999999999999,0.132157,-0.3198122222222213,5.039085493827155
7.9,0.132888,-0.0886777777777775,3.244698456790112
7.95,0.131774,-0.0269683333333334,1.9230589506172808
8.0,0.130277,0.0212288888888887,2.2602645061728404
8.05,0.131878,0.1264233333333333,4.003419135802488
8.099999999999998,0.1320349999999999,0.4352377777777791,5.331585802469161
8.15,0.171992,0.7963922222222242,3.9532314814814793
8.199999999999998,0.2239739999999999,0.9213150000000002,0.6371904320987248
8.25,0.2730849999999999,0.839907777777772,-2.537239506172823
8.3,0.3127109999999999,0.6218972222222225,-4.787316049382688
8.349999999999998,0.3383799999999999,0.3217477777777788,-6.045919135802475
8.4,0.3460719999999999,-0.0130999999999998,-6.471406172839521
8.449999999999998,0.3374579999999999,-0.3540916666666669,-6.09212006172838
8.5,0.3097519999999999,-0.6643661111111065,-4.665881481481455
8.55,0.2666799999999999,-0.8672783333333337,-2.125426851851892
8.599999999999998,0.2173259999999999,-0.915445555555558,1.1810817901234445
8.65,0.1657609999999999,-0.7511222222222242,4.271408333333357
8.699999999999998,0.1318959999999999,-0.3880616666666667,5.23148549382718
8.75,0.131495,-0.1024627777777778,3.6971070987654127
8.8,0.132157,-0.0167327777777778,2.0284919753086434
8.849999999999998,0.1320699999999999,0.0153222222222221,2.011943209876545
8.9,0.1316169999999999,0.098053888888889,3.6690592592592615
8.949999999999998,0.131304,0.3817516666666668,5.223105246913559
9.0,0.164909,0.7477127777777722,4.253640123456761
9.05,0.2166299999999999,0.9106422222222224,1.11385339506177
9.1,0.2660019999999999,0.8519666666666688,-2.148675925925916
9.15,0.3068639999999999,0.6501211111111129,-4.531397839506193
9.2,0.334256,0.359596666666667,-5.92550308641977
9.25,0.3446969999999999,0.0231733333333331,-6.409146604938241
9.3,0.3366399999999999,-0.3150666666666669,-6.018966666666684
9.35,0.3114929999999999,-0.6116333333333351,-4.759727469135821
9.4,0.2723709999999999,-0.8272638888888909,-2.5551854938271497
9.45,0.2242349999999999,-0.9101772222222224,0.5399481481481913
9.5,0.173123,-0.798086111111105,3.851683641975284
9.55,0.131495,-0.4402072222222224,5.318585185185161
9.6,0.131547,-0.1200383333333335,3.93791327160494
9.65,0.1320699999999999,-0.0300094444444444,2.1144422839506194
9.7,0.1306769999999999,0.0032561111111111,1.9466324074074093
9.75,0.130329,0.0822600000000001,3.425630246913564
9.8,0.1304339999999999,0.3308583333333333,5.094000308641994
9.85,0.156364,0.7006161111111129,4.558305246913604
9.9,0.2089199999999999,0.9057994444444468,1.589810802469126
9.95,0.258571,0.8663561111111115,-1.765585493827201
10.0,0.300686,0.6814472222222175,-4.253729629629608
10.05,0.3301489999999999,0.4004927777777778,-5.7456858024691195
10.1,0.3426259999999999,0.0723444444444446,-6.320720987654332
10.15,0.3376489999999999,-0.2629622222222229,-6.068550308641982
10.2,0.3151129999999999,-0.5665550000000003,-4.975753086419728
10.25,0.2780099999999999,-0.7958399999999947,-2.952222222222204
10.3,0.2313879999999999,-0.9028500000000002,-0.0203364197531263
10.35,0.180815,-0.8343794444444467,3.385497530864195
10.4,0.1341409999999999,-0.5007488888888901,5.326153395061755
10.45,0.13019,-0.1501311111111108,4.313563271604951
10.5,0.131913,-0.0286961111111111,2.386464506172832
10.55,0.1307119999999999,0.0105394444444443,1.8804706790123475
10.6,0.1315129999999999,0.0783322222222222,3.0203243827160566
10.65,0.1323479999999999,0.2779783333333338,4.747247530864203
10.7,0.1502379999999999,0.6365150000000005,4.740258950617255
10.75,0.201489,0.8838694444444379,2.0966845679012214
10.8,0.2514179999999999,0.8727144444444446,-1.3008969135802062
10.85,0.2944549999999999,0.7068388888888906,-3.911335185185179
10.9,0.3255369999999999,0.4399877777777789,-5.532722530864216
10.95,0.3406429999999999,0.1192205555555559,-6.233933641975316
11.0,0.338015,-0.215401666666665,-6.0987959876542925
11.05,0.3179839999999999,-0.5221177777777782,-5.138806790123485
11.1,0.2831259999999999,-0.7629911111111131,-3.2704376543210105
11.15,0.237896,-0.8900122222222246,-0.4682376543209772
11.2,0.187967,-0.8538611111111118,2.9748824074074447
11.25,0.1381949999999999,-0.5411388888888852,5.180166358024659
11.3,0.1317909999999999,-0.1833361111111108,4.417346913580236
11.35,0.1323479999999999,-0.0461544444444443,2.498474074074072
11.4,0.131304,-0.0049899999999999,1.854529629629628
11.45,0.130503,0.0597388888888888,2.840349074074072
11.5,0.1323479999999999,0.235643888888888,4.596149691357998
11.55,0.144147,0.5870344444444447,4.90716481481484
11.6,0.1945279999999999,0.8640205555555579,2.490696913580265
11.65,0.2440389999999999,0.8742233333333356,-0.8936783950617456
11.7,0.2877379999999999,0.7290633333333338,-3.5531219135802807
11.75,0.3205419999999999,0.4780349999999968,-5.264223148148122
11.8,0.3378749999999999,0.1686361111111112,-6.0741466049382655
11.85,0.337893,-0.156736666666667,-6.12871481481483
11.9,0.3221959999999999,-0.4748561111111123,-5.3714283950617325
11.95,0.288051,-0.7345372222222227,-3.59868487654318
12.0,0.244196,-0.873476666666661,-0.9007975308641912
12.05,0.1954159999999999,-0.8639927777777786,2.430874382716016
12.1,0.1451389999999999,-0.5996433333333347,4.903959259259268
12.15,0.130521,-0.2387105555555559,4.689139506172857
12.2,0.131112,-0.0512622222222221,2.842423765432104
12.25,0.132,-0.0015938888888889,1.8166722222222185
12.3,0.1310079999999999,0.0443477777777776,2.517509876543215
12.35,0.1322259999999999,0.1863466666666669,4.375768827160512
12.4,0.1380909999999999,0.5347050000000014,5.090195370370379
12.45,0.1873759999999999,0.8434405555555564,2.9085978395061383
12.5,0.2366609999999999,0.8768033333333272,-0.4953712962962922
12.55,0.2811599999999999,0.7495461111111114,-3.2455827160493484
12.6,0.3152689999999999,0.5113405555555569,-5.061475617283953
12.65,0.3348819999999999,0.2098216666666672,-5.972239197530879
12.7,0.3372839999999999,-0.1173222222222221,-6.065774999999996
12.75,0.3224219999999999,-0.4273188888888858,-5.3612043209876274
12.8,0.2924189999999999,-0.6846672222222224,-3.811972530864232
12.85,0.25067,-0.8465605555555578,-1.3446154320987869
12.9,0.202516,-0.863575555555558,1.884074074074089
12.95,0.1525529999999999,-0.6397938888888894,4.520545679012373
13.0,0.1322089999999999,-0.2900299999999989,4.71404290123454
13.05,0.1316689999999999,-0.0807972222222221,3.102820679012343
13.1,0.130556,-0.0068849999999999,1.9353756172839496
13.15,0.1324519999999999,0.0376749999999999,2.2987499999999974
13.2,0.1322609999999999,0.1407899999999997,4.149192901234559
13.25,0.1329569999999999,0.4851722222222192,5.2302762345678655
13.3,0.180815,0.8207366666666674,3.289350925925959
13.35,0.229769,0.8774100000000024,-0.0986194444444349
13.4,0.2749289999999999,0.768887222222224,-2.9202015432098967
13.45,0.3104659999999999,0.5440750000000004,-4.819775308641999
13.5,0.332046,0.2532116666666652,-5.818698765432068
13.55,0.336988,-0.0686005555555555,-6.021113888888896
13.6,0.32444,-0.3757472222222232,-5.48626975308644
13.65,0.298319,-0.6482644444444464,-4.12092222222222
13.7,0.2563429999999999,-0.8314694444444449,-1.733475308641937
13.75,0.2092509999999999,-0.8601922222222163,1.3790660493827096
13.8,0.1612539999999999,-0.6881733333333337,4.1531135802468855
13.85,0.1315129999999999,-0.3442277777777785,4.828529629629636
13.9,0.1323129999999999,-0.0952033333333334,3.319833950617294
13.95,0.1313389999999999,-0.0251383333333333,1.9789246913580272
14.0,0.130938,0.0179922222222222,2.2790429012345617
14.05,0.1303989999999999,0.125207222222222,4.019643209876555
14.1,0.131722,0.4468261111111122,5.135881481481506
14.15,0.1741319999999999,0.778851111111113,3.518114814814814
14.2,0.2222509999999999,0.8686811111111115,0.3376898148147772
14.25,0.2680899999999999,0.7845866666666614,-2.532489506172823
14.3,0.3050359999999999,0.5757655555555559,-4.555919444444419
14.35,0.328461,0.2946105555555564,-5.684204629629637
14.4,0.335926,-0.0226933333333334,-6.017455246913593
14.45,0.3261459999999999,-0.3378955555555558,-5.55347407407406
14.5,0.3003719999999999,-0.6093105555555514,-4.274108641975286
14.55,0.262069,-0.7990494444444449,-2.1250620370370727
14.6,0.2159859999999999,-0.8599527777777801,0.800307407407395
14.65,0.168215,-0.7366216666666686,3.815623765432119
14.7,0.1309039999999999,-0.3958466666666669,5.040799691358044
14.75,0.1313209999999999,-0.099583888888889,3.6730302469135614
14.8,0.132435,-0.0165394444444444,1.9990182098765448
14.85,0.132244,0.0108099999999998,2.0115700617283965
14.9,0.1308689999999999,0.0954416666666666,3.702556172839509
14.95,0.130242,0.3942011111111112,5.064202469135784
15.0,0.1676929999999999,0.7357944444444389,3.8139126543209647
15.05,0.21536,0.8574955555555562,0.7860641975309042
15.1,0.2612329999999999,0.7957933333333354,-2.1240274691357954
15.15,0.29952,0.6051477777777793,-4.223172222222243
15.2,0.3246669999999999,0.3375272222222223,-5.430457716049401
15.25,0.3343079999999999,0.0368833333333329,-5.932803703703674
15.3,0.3292089999999999,-0.2796838888888892,-5.749224074074089
15.35,0.3058889999999999,-0.5765166666666682,-4.630373148148166
15.4,0.2676379999999999,-0.7833600000000019,-2.506415123456782
15.45,0.2229469999999999,-0.8601938888888894,0.3610422839506581
15.5,0.1751589999999999,-0.7728277777777719,3.489623765432078
15.55,0.132888,-0.4421372222222224,5.062963271604916
15.6,0.1321739999999999,-0.1277361111111111,3.93326604938272
15.65,0.131722,-0.0245755555555554,2.233986728395064
15.7,0.132331,0.0172938888888889,1.9846990740740744
15.75,0.132,0.0912649999999999,3.333509259259243
15.8,0.1321739999999999,0.3428716666666666,4.756343827160512
15.85,0.1615149999999999,0.6759327777777796,4.019096296296317
15.9,0.208485,0.8408555555555578,1.2774793209876374
15.95,0.2547939999999999,0.8041483333333331,-1.7089978395062184
16.0,0.293829,0.6311622222222167,-3.9653706790123247
16.05,0.3210639999999999,0.3719161111111088,-5.337970987654262
16.1,0.3328979999999999,0.0659655555555565,-5.883870061728449
16.15,0.327938,-0.2469744444444474,-5.642594444444477
16.2,0.3068809999999999,-0.5273538888888853,-4.642116666666577
16.25,0.2725099999999999,-0.7412544444444363,-2.829509876543181
16.3,0.2290899999999999,-0.8461211111111052,-0.2042808641976337
16.35,0.1821029999999999,-0.7991138888888994,2.9466012345678667
16.4,0.136264,-0.5018288888888947,4.915329012345789
16.45,0.1304339999999999,-0.1705199999999997,4.209099382716063
16.5,0.130138,-0.0343050000000002,2.5081104938271546
16.55,0.1310949999999999,0.0135444444444443,2.0073879629629623
