Data Set 1:Time(s),Data Set 1:Position(m),Data Set 1:Velocity(m/s),Data Set 1:Acceleration(m/s²)
0,0.36852099999999999,-0.5950022222222221,-1.2210903086419755
0.050000000000000003,0.34193499999999999,-0.66643361111111099,-0.68234533950617315
0.10000000000000001,0.304732,-0.72341533333333319,0.54332879629629527
0.14999999999999999,0.26366000000000001,-0.66586166666666669,2.6791379320987647
0.20000000000000001,0.23116399999999998,-0.4543794444444445,4.8663229320987655
0.25,0.21385299999999999,-0.13585555555555553,6.0852958641975325
0.29999999999999999,0.21632799999999999,0.21438888888888893,5.8752061728395049
0.34999999999999998,0.23752699999999999,0.50947999999999993,4.2604722222222202
0.40000000000000002,0.272115,0.68517722222222199,1.5850540123456789
0.45000000000000001,0.313641,0.68281944444444453,-1.4602657407407404
0.5,0.34678100000000001,0.52135055555555543,-4.101907098765432
0.55000000000000004,0.37078699999999998,0.23630166666666655,-5.8219993827160499
0.59999999999999998,0.37362899999999999,-0.12011444444444454,-6.1074799382716067
0.65000000000000002,0.35710199999999997,-0.43941777777777791,-4.8438302469135808
0.69999999999999996,0.32544299999999998,-0.65452500000000013,-2.3735228395061707
0.75,0.28461399999999998,-0.70154277777777752,0.68887962962963067
0.80000000000000004,0.24802199999999999,-0.57431555555555547,3.5050842592592582
0.84999999999999998,0.221855,-0.31431111111111115,5.4386126543209867
0.90000000000000002,0.21338199999999999,0.022663888888888876,6.0676117283950619
0.94999999999999996,0.22434799999999999,0.35308222222222224,5.2302959876543182
1,0.25224099999999999,0.59828777777777742,3.1240870370370342
1.05,0.29031499999999999,0.69580833333333303,0.27028240740741127
1.1000000000000001,0.328459,0.62924388888888927,-2.6710645061728382
1.1499999999999999,0.35983899999999996,0.40477055555555569,-5.0078836419753125
1.2,0.37340199999999996,0.075502222222222373,-6.0842790123456751
1.25,0.367788,-0.26713722222222175,-5.6393435185185163
1.3,0.34392200000000001,-0.54339111111111094,-3.8378052469135846
1.3500000000000001,0.30828899999999998,-0.69081888888888943,-1.077682716049388
1.3999999999999999,0.26758199999999999,-0.66476611111111172,1.9847253086419803
1.45,0.23468599999999998,-0.46933888888888869,4.5104459876543244
1.5,0.21629399999999999,-0.16534666666666645,5.8819231481481458
1.55,0.21651999999999999,0.17791500000000002,5.8156790123456767
1.6000000000000001,0.236011,0.47443500000000038,4.3418209876543248
1.6499999999999999,0.268872,0.65375444444444486,1.8480725308641943
1.7,0.30781799999999998,0.67614111111111075,-1.0732074074074121
1.75,0.34292899999999998,0.53892055555555518,-3.7884179012345656
1.8,0.367562,0.26281222222222195,-5.6328074074074044
1.8500000000000001,0.37240799999999996,-0.085485000000000186,-6.0295777777777815
1.8999999999999999,0.35776399999999997,-0.40703888888888912,-4.8565135802469142
1.95,0.32678499999999999,-0.61610888888888848,-2.5546018518518507
2,0.29055900000000001,-0.68335055555555568,0.29174969135802459
2.0499999999999998,0.25187500000000002,-0.58870055555555534,3.1328780864197525
2.1000000000000001,0.22500999999999999,-0.33901944444444432,5.214602777777773
2.1499999999999999,0.21482899999999999,-0.011068888888888883,5.9682166666666632
2.2000000000000002,0.223912,0.31804166666666661,5.2607969135802497
2.25,0.24990499999999999,0.56731444444444534,3.2831901234567944
2.2999999999999998,0.28642699999999999,0.67784444444444436,0.53483734567900365
2.3500000000000001,0.32441500000000001,0.62469222222222154,-2.3244672839506193
2.3999999999999999,0.35478299999999996,0.42521444444444395,-4.6698580246913517
2.4500000000000002,0.37174599999999997,0.11372000000000008,-5.9267438271604904
2.5,0.36763099999999999,-0.23154611111111134,-5.6662969135802568
2.5499999999999998,0.34570000000000001,-0.51150833333333334,-3.9896302469135758
2.6000000000000001,0.31163599999999997,-0.67084777777777749,-1.3294790123456748
2.6499999999999999,0.27148699999999998,-0.65940055555555499,1.6762746913580224
2.7000000000000002,0.23879999999999998,-0.48304333333333321,4.2117475308641916
2.75,0.21862999999999999,-0.19382055555555577,5.680644444444451
2.7999999999999998,0.217444,0.14244500000000002,5.7536015432098742
2.8500000000000001,0.234511,0.43953888888888853,4.4251879629629594
2.8999999999999999,0.26589099999999999,0.62809888888888854,2.0512070987654334
2.9500000000000002,0.30368600000000001,0.66342055555555546,-0.78604135802468456
3,0.338779,0.53968666666666765,-3.4033762345679075
3.0499999999999998,0.36262800000000001,0.29169222222222196,-5.2412626543209919
3.1000000000000001,0.37125799999999998,-0.03317944444444465,-5.8718052469135751
3.1499999999999999,0.35936799999999997,-0.35714833333333312,-5.0320848765432062
3.2000000000000002,0.33157999999999999,-0.58867222222222193,-2.9296814814814867
3.25,0.2949,-0.68118722222222328,-0.077308333333334367
3.2999999999999998,0.25619799999999998,-0.59999277777777771,2.8387996913580302
3.3500000000000001,0.22841,-0.36494444444444413,4.9953901234567883
3.3999999999999999,0.21643299999999999,-0.047061111111111144,5.8746092592592554
3.4500000000000002,0.22323199999999999,0.28167277777777777,5.3106487654321022
3.5,0.24756899999999998,0.53806500000000101,3.4442753086419788
3.5499999999999998,0.28267900000000001,0.65938111111111086,0.77281234567900492
3.6000000000000001,0.32017799999999996,0.62006333333333297,-2.0322537037037041
3.6499999999999999,0.35066900000000001,0.43400277777777757,-4.3171682098765389
3.7000000000000002,0.36752699999999999,0.14902611111111103,-5.622349691358024
3.75,0.367562,-0.1808622222222227,-5.6230280864197608
3.7999999999999998,0.34798399999999996,-0.47277277777777771,-4.2013978395061651
3.8500000000000001,0.315471,-0.64855499999999944,-1.6627839506172808
3.8999999999999999,0.27610699999999999,-0.65752388888888846,1.3152259259259214
3.9500000000000002,0.242757,-0.49962833333333334,3.901292901234561
4,0.22143599999999999,-0.2249266666666673,5.4737638888888975
4.0499999999999998,0.21808899999999998,0.10266611111111122,5.7061845679012384
4.0999999999999996,0.23283799999999999,0.40251611111110991,4.5589253086419532
4.1500000000000004,0.26242199999999999,0.60344999999999793,2.3264864197530932
4.2000000000000002,0.29929299999999998,0.65738833333333435,-0.44841790123454833
4.25,0.33471799999999996,0.55243722222222369,-3.0906339506172906
4.2999999999999998,0.35966399999999998,0.31958555555555607,-5.0205691358024849
4.3499999999999996,0.37024599999999996,0.0034205555555554558,-5.7878999999999836
4.4000000000000004,0.36041399999999996,-0.32031166666666544,-5.0994478395061655
4.4500000000000002,0.334561,-0.55932444444444529,-3.1360570987654537
4.5,0.29917099999999996,-0.66647166666666846,-0.38496296296296401
4.5499999999999998,0.26080100000000001,-0.60369222222222307,2.4896657407407612
4.5999999999999996,0.232402,-0.38853888888888771,4.687917592592588
4.6500000000000004,0.218473,-0.085521111111110937,5.7006635802468963
4.7000000000000002,0.22295299999999998,0.23828166666666697,5.3255287037037169
4.75,0.24479699999999999,0.5011272222222235,3.6460373456790225
4.7999999999999998,0.27828599999999998,0.63887944444444555,1.0952509259259093
4.8499999999999996,0.31513999999999998,0.62016944444444255,-1.6945077160493911
4.9000000000000004,0.34643299999999999,0.45187666666666543,-4.0556249999999787
4.9500000000000002,0.364929,0.17376555555555595,-5.4286728395061763
5,0.365539,-0.14672222222222267,-5.4686805555555695
5.0499999999999998,0.34831499999999999,-0.42455777777777848,-4.231933950617278
5.0999999999999996,0.31958500000000001,-0.61115999999999826,-1.9804478395061544
5.1500000000000004,0.28110999999999997,-0.64943555555555366,0.86602098765430569
5.2000000000000002,0.24727199999999999,-0.51606111111111197,3.5066922839506076
5.25,0.22448699999999999,-0.25912388888888954,5.223394135802482
5.2999999999999998,0.21885599999999999,0.059923888888889019,5.6404021604938324
5.3499999999999996,0.23119899999999999,0.36143166666666565,4.680373456790103
5.4000000000000004,0.25863900000000001,0.57448277777777601,2.5918716049382762
5.4500000000000002,0.294464,0.64665666666666766,-0.1227617283950428
5.5,0.32987099999999997,0.56023944444444596,-2.787670370370376
5.5499999999999998,0.356126,0.33827333333333404,-4.7459339506172995
5.5999999999999996,0.36696899999999999,0.036617777777777721,-5.5371049382715922
5.6500000000000004,0.359682,-0.26732999999999912,-5.0458867283950557
5.7000000000000002,0.33799499999999999,-0.51364333333333423,-3.4015509259259473
5.75,0.30399999999999999,-0.64805388888889082,-0.82277808641975503
5.7999999999999998,0.26582099999999997,-0.61102500000000104,2.0689351851852078
5.8499999999999996,0.23615,-0.41507499999999858,4.3764811728395046
5.9000000000000004,0.220634,-0.12471277777777741,5.5361833333333159
5.9500000000000002,0.22256999999999999,0.19315166666666694,5.3512391975308766
6,0.24183299999999999,0.46359611111111237,3.8740706790123554
6.0499999999999998,0.27370099999999997,0.6191727777777789,1.470615432098749
6.0999999999999996,0.31004999999999999,0.62368222222222036,-1.2583901234568018
6.1500000000000004,0.342196,0.47887722222222062,-3.6570746913580057
6.2000000000000002,0.36231399999999997,0.22444333333333355,-5.2238953703703697
6.25,0.36729999999999996,-0.091832222222222412,-5.5879401234568009
6.2999999999999998,0.35263899999999998,-0.39297333333333379,-4.5470743827160431
6.3499999999999996,0.32399600000000001,-0.59748722222222028,-2.3082191358024509
6.4000000000000004,0.28642699999999999,-0.6487666666666646,0.52739567901232942
6.4500000000000002,0.25224099999999999,-0.53533166666666754,3.167537962962951
6.5,0.22792199999999999,-0.2977127777777786,4.9876570987654443
6.5499999999999998,0.21946599999999999,0.012298333333333425,5.6032077160493898
6.5999999999999996,0.22917699999999999,0.31975333333333245,4.83857962962961
6.6500000000000004,0.25483800000000001,0.54606555555555392,2.8782898148148184
6.7000000000000002,0.28947800000000001,0.63562055555555652,0.23393179012347518
6.75,0.32478099999999999,0.57020666666666819,-2.4370209876543272
6.7999999999999998,0.352186,0.36667888888888944,-4.4974117283950781
6.8499999999999996,0.36506899999999998,0.075328888888888529,-5.4615993827160354
6.9000000000000004,0.36048399999999997,-0.2341994444444436,-5.1005608024691265
6.9500000000000002,0.33925,-0.48591555555555627,-3.501494444444464
7,0.306981,-0.61898666666666835,-1.0596012345679051
7.0499999999999998,0.271208,-0.60260611111111217,1.6428222222222411
7.0999999999999996,0.240648,-0.43912111111110991,3.9612941358024685
7.1500000000000004,0.22277899999999998,-0.16697333333333295,5.3210697530864026
7.2000000000000002,0.22220299999999998,0.14726388888888914,5.370969444444456
7.25,0.23902699999999999,0.42496722222222333,4.0950003086419846
7.2999999999999998,0.26897699999999997,0.59875388888888992,1.8059040123456633
7.3499999999999996,0.305064,0.62404888888888677,-0.92723765432099858
7.4000000000000004,0.33776799999999996,0.49540277777777625,-3.409724691358003
7.4500000000000002,0.35950799999999999,0.24750222222222285,-5.0377626543209866
7.5,0.364929,-0.059208888888889026,-5.4347166666666809
7.5499999999999998,0.35289999999999999,-0.34972888888888959,-4.5234030864197488
7.5999999999999996,0.32652399999999998,-0.55638055555555377,-2.5229929012345491
7.6500000000000004,0.29169200000000001,-0.62801111111110908,0.10182222222220706
7.7000000000000002,0.25734899999999999,-0.54563777777777889,2.7106716049382578
7.75,0.23163499999999998,-0.33005833333333429,4.6652043209876659
7.7999999999999998,0.22087899999999999,-0.031625555555555608,5.4716950617284033
7.8499999999999996,0.22819999999999999,0.27363999999999911,4.9182061728394837
7.9000000000000004,0.25112499999999999,0.50992388888888707,3.1609783950617221
7.9500000000000002,0.28435299999999997,0.62107000000000034,0.64361265432099424
8,0.31953300000000001,0.57980333333333223,-2.006137345679003
8.0500000000000007,0.348159,0.39854611111111177,-4.1352123456790144
8.0999999999999996,0.36325599999999997,0.12324388888888919,-5.2442842592592784
8.1500000000000004,0.36119899999999999,-0.17465222222222276,-5.1471123456790231
8.1999999999999993,0.34446299999999996,-0.43725666666666702,-3.888433950617264
8.25,0.31404199999999999,-0.6086766666666622,-1.581903395061719
8.3000000000000007,0.27664699999999998,-0.61882555555555596,1.2342682098765154
8.3499999999999996,0.245337,-0.46820666666666794,3.682213580246914
8.4000000000000004,0.22556799999999999,-0.20939888888888955,5.1604169753086566
8.4499999999999993,0.22234299999999999,0.099227222222222231,5.3753089506172813
8.5,0.23649899999999999,0.38217611111110839,4.2792586419752876
8.5500000000000007,0.26451399999999997,0.57016388888888947,2.1466271604938543
8.5999999999999996,0.299346,0.61744388888889068,-0.48962901234567058
8.6500000000000004,0.33238099999999998,0.51550055555555707,-2.9872459876543367
8.6999999999999993,0.356126,0.28830000000000028,-4.7512787037037185
8.75,0.36405799999999999,-0.0085066666666665323,-5.3468046296296032
8.8000000000000007,0.35474800000000001,-0.29656000000000032,-4.6971703703703866
8.8499999999999996,0.33215499999999998,-0.52406111111111275,-2.9226583333333487
8.9000000000000004,0.29711399999999999,-0.62437944444444626,-0.33585771604937226
8.9499999999999993,0.26273599999999997,-0.56137777777777809,2.3411842592592862
9,0.235488,-0.36349666666666408,4.3972870370370138
9.0500000000000007,0.22272599999999998,-0.076390555555555573,5.3566910493827145
9.0999999999999996,0.227189,0.2266150000000007,4.9956966049382858
9.1500000000000004,0.247726,0.47318722222222337,3.4223074074074069
9.1999999999999993,0.27933199999999997,0.60296444444444475,1.021980246913555
9.25,0.31411099999999997,0.58529277777777378,-1.6175435185185085
9.3000000000000007,0.34378300000000001,0.42446166666666713,-3.851904012345662
9.3499999999999996,0.360815,0.16068388888888926,-5.1356580246913692
9.4000000000000004,0.36138999999999999,-0.1409283333333339,-5.1656459876543304
9.4499999999999993,0.34524699999999997,-0.40708166666666701,-3.949563580246894
9.5,0.31669199999999997,-0.57558666666666247,-1.7735212962962847
9.5500000000000007,0.28182499999999999,-0.60283500000000012,0.84309938271602203
9.5999999999999996,0.25028800000000001,-0.48227111111111243,3.2475598765432081
9.6500000000000004,0.22886299999999998,-0.24584611111111188,4.8680787037037172
9.6999999999999993,0.223075,0.053103888888888916,5.3065703703703697
9.75,0.23466799999999999,0.33955444444444205,4.4280722222221991
9.8000000000000007,0.26055699999999998,0.54141166666666718,2.4538179012345913
9.8499999999999996,0.29436000000000001,0.60933833333333487,-0.1137256172839438
9.9000000000000004,0.32765699999999998,0.52793555555555671,-2.6340802469135949
9.9499999999999993,0.35242999999999997,0.31847611111111118,-4.4894895061728537
10,0.36269799999999996,0.032917777777777504,-5.2385290123456496
10.050000000000001,0.35589899999999997,-0.25854833333333355,-4.7125876543209992
10.1,0.33382799999999996,-0.48084944444444561,-3.1177327160493959
10.15,0.30387799999999998,-0.6004388888888903,-0.78144999999999321
10.199999999999999,0.26775599999999999,-0.57407222222222254,1.8631765432099006
10.25,0.23991599999999999,-0.39545777777777508,4.0611237654320762
10.300000000000001,0.22450499999999998,-0.12395888888888901,5.2213049382716017
10.35,0.22619599999999998,0.1796677777777784,5.0908888888889043
10.4,0.244309,0.43783333333333468,3.6894012345679026
10.449999999999999,0.27457300000000001,0.58606333333333371,1.3862391975308377
10.5,0.30895099999999998,0.58883444444444033,-1.2255799382715984
10.550000000000001,0.339285,0.44952444444444478,-3.5037845679012158
10.6,0.35837399999999997,0.20269166666666724,-4.9199617283950703
10.65,0.36149500000000001,-0.09210111111111137,-5.1427947530864309
10.699999999999999,0.34787999999999997,-0.35920055555555591,-4.1792296296296154
10.75,0.322741,-0.55113277777777403,-2.210409876543197
10.800000000000001,0.28724699999999997,-0.60919444444444493,0.40533333333330795
10.85,0.25489099999999998,-0.50614555555555685,2.9201302469135797
10.9,0.23184399999999999,-0.28396777777777854,4.663813888888904
10.949999999999999,0.22370299999999999,0.0069155555555555819,5.266355246913581
11,0.23255899999999999,0.29584888888888689,4.576816975308617
11.050000000000001,0.256355,0.51105222222222257,2.7665416666666887
11.1,0.28886800000000001,0.60030166666666818,0.28365432098766324
11.15,0.32247899999999996,0.54208666666666794,-2.261486111111124
11.199999999999999,0.34862899999999997,0.35021888888888913,-4.231688888888903
11.25,0.36091999999999996,0.075073333333333089,-5.1480151234567613
11.300000000000001,0.356771,-0.21614444444444428,-4.8147320987654449
11.35,0.33707100000000001,-0.45352944444444571,-3.332270679012364
11.4,0.306946,-0.58200722222222401,-1.054243209876538
11.449999999999999,0.27310899999999999,-0.57032777777777832,1.4942734567901497
11.5,0.24413399999999999,-0.41889999999999711,3.7026308641975123
11.550000000000001,0.22687599999999999,-0.16311277777777788,5.0138299382715994
11.6,0.226074,0.13433277777777811,5.0779879629629781
11.65,0.24176399999999998,0.39725111111111228,3.8772157407407448
11.699999999999999,0.26991799999999999,0.56105500000000053,1.7299012345678768
11.75,0.303564,0.58691055555555149,-0.82507160493826781
11.800000000000001,0.33452599999999999,0.4695183333333337,-3.1632848765431909
11.85,0.35521900000000001,0.23821777777777844,-4.7199700617284028
11.9,0.360676,-0.049866111111111361,-5.1282990740740848
11.949999999999999,0.34972799999999998,-0.32566333333333358,-4.2971117283950475
12,0.32486799999999999,-0.52270944444444067,-2.4214203703703574
12.050000000000001,0.29219800000000001,-0.59241444444444491,0.048357407407379767
12.1,0.25966699999999998,-0.51779611111111268,2.5137891975308615
12.15,0.23513899999999999,-0.31578888888888978,4.3681734567901396
12.199999999999999,0.22490599999999999,-0.036666111111111184,5.1522725308641997
12.25,0.23111199999999998,0.25139722222222033,4.677305864197506
12.300000000000001,0.25255499999999997,0.47839777777777798,3.0565089506173071
12.35,0.28377799999999997,0.58841944444444616,0.68172777777778926
12.4,0.31742399999999998,0.55315444444444595,-1.8498145061728535
12.449999999999999,0.34470699999999999,0.38326555555555575,-3.9065512345679205
12.5,0.35945499999999997,0.12202888888888792,-4.9981098765431824
12.550000000000001,0.35772899999999996,-0.16277722222222232,-4.934145987654329
12.6,0.34230099999999997,-0.41967444444444557,-3.6875682098765572
12.65,0.31160099999999996,-0.57530666666666808,-1.4365638888888828
12.699999999999999,0.27812900000000002,-0.57726166666666689,1.1587608024691607
12.75,0.24842299999999998,-0.44372055555555251,3.4087104938271406
12.800000000000001,0.22936899999999999,-0.20267111111111127,4.829437037037029
12.85,0.22605599999999998,0.08770722222222245,5.0701549382716191
12.9,0.23907899999999999,0.35564777777777873,4.073608641975313
12.949999999999999,0.26524599999999998,0.53610166666666714,2.0846632716049158
13,0.29814299999999999,0.58468055555555154,-0.40393827160493662
13.050000000000001,0.32955699999999999,0.49117000000000038,-2.779598456790104
13.1,0.352273,0.27803944444444512,-4.4667314814814887
13.15,0.36009999999999998,-0.0021716666666669166,-5.045185185185197
13.199999999999999,0.35145299999999996,-0.27303944444444467,-4.4607259259259138
13.25,0.33089999999999997,-0.4907799999999965,-2.8235753086419595
13.300000000000001,0.29758499999999999,-0.59109277777777824,-0.38132685185187826
13.35,0.26494999999999996,-0.53326500000000154,2.1649966049382692
13.4,0.23913099999999998,-0.34863611111111198,4.1193601851852018
13.449999999999999,0.22664899999999999,-0.079405000000000017,5.0530351851851893
13.5,0.23041499999999998,0.20771944444444299,4.744816049382691
13.550000000000001,0.24957399999999999,0.44289166666666691,3.2807595679012547
13.6,0.27922799999999998,0.5687005555555571,1.0208462962963087
13.65,0.31222899999999998,0.55472388888889057,-1.4767046296296413
13.699999999999999,0.340279,0.40551444444444479,-3.6010864197531069
13.75,0.356823,0.15824333333333215,-4.8439024691357773
